time temp susc csusc
 00000    26.0    -133.0   .0
 00024    29.4    -132.8   .0
 00039    34.5    -133.6   .0
 00057    39.1    -133.2   .0
 00072    44.4    -133.8   .0
 00090    48.8    -133.8   .0
 00106    53.6    -134.2   .0
 00124    57.3    -134.2   .0
 00139    61.3    -134.6   .0
 00157    64.2    -134.6   .0
 00172    67.5    -134.8   .0
 00190    70.2    -134.8   .0
 00205    73.3    -135.0   .0
 00222    75.9    -135.0   .0
 00238    78.8    -135.4   .0
 00255    81.3    -135.2   .0
 00271    83.7    -135.4   .0
 00286    86.0    -135.2   .0
 00301    88.8    -135.6   .0
 00320    91.0    -135.4   .0
 00334    93.7    -135.8   .0
 00353    95.9    -135.8   .0
 00368    98.7    -136.0   .0
 00386    100.9    -135.8   .0
 00401    103.7    -136.4   .0
 00419    106.3    -136.0   .0
 00437    109.1    -136.4   .0
 00455    111.7    -136.2   .0
 00474    114.4    -136.8   .0
 00491    117.0    -136.6   .0
 00509    119.8    -136.8   .0
 00527    122.0    -136.6   .0
 00541    124.8    -137.2   .0
 00559    127.2    -137.0   .0
 00574    130.0    -137.2   .0
 00592    132.4    -137.2   .0
 00607    135.3    -137.6   .0
 00624    137.7    -137.4   .0
 00639    140.6    -137.6   .0
 00657    143.3    -137.6   .0
 00675    145.9    -138.0   .0
 00693    148.2    -137.6   .0
 00708    151.0    -138.2   .0
 00726    153.2    -137.8   .0
 00741    156.0    -138.4   .0
 00759    158.6    -138.2   .0
 00777    161.2    -138.4   .0
 00795    163.7    -138.2   .0
 00812    166.3    -138.6   .0
 00831    168.8    -138.2   .0
 00848    171.2    -138.6   .0
 00866    173.1    -138.4   .0
 00884    175.0    -138.6   .0
 00902    176.8    -138.6   .0
 00919    178.9    -138.8   .0
 00937    180.7    -138.6   .0
 00952    183.0    -138.8   .0
 00970    185.0    -138.8   .0
 00985    187.1    -138.8   .0
 01003    188.8    -138.8   .0
 01017    190.1    -139.2   .0
 01034    191.0    -138.8   .0
 01049    192.0    -139.2   .0
 01067    192.6    -139.0   .0
 01082    193.3    -139.4   .0
 01100    194.3    -139.0   .0
 01118    195.7    -139.4   .0
 01136    197.7    -139.2   .0
 01153    200.5    -139.6   .0
 01172    204.0    -139.4   .0
 01189    209.0    -139.6   .0
 01207    215.3    -139.6   .0
 01225    222.3    -140.0   .0
 01243    228.2    -139.8   .0
 01258    236.0    -140.2   .0
 01276    243.0    -140.2   .0
 01291    250.6    -140.4   .0
 01309    255.9    -140.2   .0
 01324    261.2    -140.8   .0
 01341    265.5    -140.4   .0
 01356    270.3    -140.8   .0
 01374    274.1    -140.4   .0
 01388    278.4    -140.8   .0
 01407    281.9    -140.6   .0
 01421    286.1    -141.0   .0
 01440    289.9    -140.8   .0
 01457    293.7    -141.2   .0
 01475    296.6    -141.0   .0
 01490    300.4    -141.0   .0
 01508    303.5    -141.0   .0
 01522    307.2    -141.2   .0
 01540    310.3    -141.0   .0
 01555    313.9    -141.2   .0
 01573    316.9    -141.2   .0
 01588    320.5    -141.4   .0
 01606    323.6    -141.4   .0
 01621    326.6    -141.6   .0
 01637    329.7    -141.4   .0
 01653    333.1    -141.8   .0
 01671    335.8    -141.4   .0
 01686    339.2    -141.8   .0
 01704    342.4    -141.4   .0
 01721    345.9    -142.0   .0
 01738    348.7    -141.6   .0
 01753    352.2    -141.8   .0
 01771    355.1    -141.6   .0
 01786    358.5    -142.0   .0
 01804    361.3    -141.8   .0
 01819    364.7    -142.0   .0
 01837    367.5    -141.8   .0
 01852    371.1    -142.2   .0
 01870    373.8    -142.0   .0
 01885    377.2    -142.0   .0
 01903    380.3    -142.0   .0
 01920    383.4    -142.0   .0
 01938    386.3    -142.0   .0
 01953    389.7    -142.2   .0
 01970    392.5    -142.4   .0
 01986    395.3    -142.2   .0
 02001    398.5    -142.4   .0
 02019    401.1    -142.0   .0
 02034    404.4    -142.2   .0
 02051    407.3    -142.2   .0
 02066    410.1    -142.4   .0
 02081    412.9    -142.2   .0
 02096    416.4    -142.6   .0
 02115    419.9    -142.2   .0
 02132    423.7    -142.8   .0
 02150    427.4    -142.4   .0
 02168    431.3    -142.8   .0
 02186    434.5    -142.4   .0
 02200    438.2    -142.6   .0
 02218    441.1    -142.6   .0
 02233    444.5    -142.8   .0
 02251    447.3    -142.6   .0
 02265    450.2    -142.8   .0
 02280    453.3    -142.8   .0
 02296    456.1    -143.0   .0
 02311    458.7    -142.8   .0
 02325    462.1    -143.2   .0
 02344    464.8    -142.8   .0
 02359    468.0    -143.2   .0
 02377    470.8    -142.6   .0
 02392    473.5    -143.0   .0
 02407    476.2    -143.0   .0
 02421    479.5    -143.0   .0
 02439    482.1    -143.0   .0
 02455    485.3    -143.2   .0
 02473    488.5    -143.0   .0
 02490    491.8    -143.2   .0
 02508    494.6    -143.6   .0
 02524    497.5    -143.4   .0
 02542    499.9    -143.4   .0
 02557    502.9    -143.4   .0
 02575    505.5    -143.4   .0
 02590    508.6    -143.6   .0
 02607    511.4    -143.6   .0
 02622    514.4    -143.8   .0
 02639    516.9    -143.6   .0
 02654    519.9    -143.8   .0
 02672    522.4    -143.8   .0
 02687    525.5    -143.8   .0
 02704    528.3    -143.8   .0
 02719    531.0    -143.8   .0
 02734    533.8    -144.0   .0
 02749    536.5    -144.2   .0
 02764    539.7    -144.0   .0
 02781    542.7    -144.0   .0
 02797    545.2    -144.2   .0
 02812    547.8    -144.4   .0
 02827    550.3    -144.4   .0
 02843    553.5    -144.6   .0
 02861    556.7    -144.4   .0
 02879    559.9    -144.8   .0
 02897    562.6    -144.6   .0
 02912    565.7    -144.8   .0
 02930    568.5    -144.8   .0
 02945    569.7    -144.8   .0
 02960    573.1    -144.8   .0
 02975    576.1    -144.8   .0
 02990    578.8    -144.8   .0
 03005    581.9    -144.6   .0
 03023    584.5    -144.8   .0
 03038    587.6    -145.0   .0
 03055    590.2    -145.0   .0
 03070    592.8    -145.0   .0
 03084    595.5    -144.8   .0
 03099    598.6    -144.8   .0
 03117    601.1    -145.0   .0
 03132    604.1    -145.0   .0
 03150    606.8    -145.2   .0
 03165    609.6    -145.0   .0
 03180    612.8    -145.0   .0
 03198    615.4    -145.0   .0
 03214    618.1    -145.4   .0
 03229    620.8    -145.2   .0
 03244    623.4    -145.2   .0
 03258    625.9    -145.2   .0
 03273    628.9    -145.2   .0
 03291    631.9    -145.4   .0
 03308    634.5    -145.2   .0
 03323    637.5    -145.4   .0
 03340    640.1    -145.4   .0
 00005    642.9    -145.4    .0
 00018    644.8    -145.6    .0
 00036    645.8    -145.2    .0
 00052    646.5    -145.6    .0
 00070    646.8    -145.2    .0
 00085    646.6    -145.4    .0
 00100    645.8    -145.2    .0
 00115    644.2    -145.6    .0
 00133    642.8    -145.4    .0
 00148    641.0    -145.2    .0
 00163    639.0    -145.2    .0
 00180    637.0    -145.4    .0
 00196    635.1    -145.4    .0
 00211    633.1    -145.0    .0
 00226    630.6    -145.4    .0
 00244    628.5    -145.0    .0
 00259    625.7    -145.4    .0
 00277    623.3    -145.4    .0
 00292    621.1    -145.0    .0
 00307    619.0    -145.4    .0
 00322    616.8    -145.2    .0
 00336    614.0    -145.4    .0
 00354    611.9    -145.2    .0
 00370    609.2    -145.2    .0
 00387    607.0    -145.0    .0
 00402    604.7    -145.0    .0
 00416    602.3    -145.0    .0
 00431    599.5    -145.0    .0
 00449    597.0    -144.8    .0
 00464    594.6    -144.2    .0
 00479    591.7    -144.0    .0
 00497    589.2    -143.6    .0
 00512    586.5    -143.0    .0
 00527    584.0    -142.6    .0
 00542    581.6    -142.0    .0
 00557    578.1    -141.0    .0
 00574    575.5    -140.6    .0
 00589    573.2    -139.8    .0
 00604    570.4    -139.2    .0
 00622    568.1    -138.2    .0
 00637    565.3    -137.4    .0
 00655    562.5    -136.6    .0
 00672    559.7    -135.6    .0
 00687    556.9    -134.8    .0
 00702    554.3    -134.0    .0
 00716    551.1    -133.4    .0
 00735    548.6    -132.6    .0
 00749    545.7    -132.0    .0
 00767    542.8    -131.0    .0
 00782    540.1    -130.6    .0
 00797    537.5    -129.8    .0
 00812    534.6    -129.4    .0
 00829    531.6    -128.8    .0
 00847    529.0    -128.2    .0
 00861    526.0    -127.8    .0
 00878    523.1    -127.2    .0
 00896    520.7    -127.2    .0
 00911    518.2    -126.6    .0
 00926    515.0    -126.2    .0
 00944    512.4    -125.8    .0
 00960    509.3    -125.6    .0
 00977    506.3    -125.2    .0
 00994    503.7    -125.0    .0
 01009    501.0    -124.6    .0
 01025    498.0    -124.2    .0
 01043    495.4    -124.0    .0
 01058    492.9    -124.0    .0
 01072    490.1    -123.8    .0
 01087    486.9    -123.6    .0
 01105    484.1    -123.4    .0
 01119    481.3    -123.2    .0
 01134    478.0    -122.8    .0
 01151    474.9    -123.0    .0
 01169    472.2    -122.6    .0
 01184    469.6    -122.6    .0
 01199    466.4    -122.4    .0
 01216    463.1    -122.2    .0
 01233    460.2    -122.2    .0
 01248    457.1    -121.8    .0
 01263    453.3    -121.4    .0
 01281    450.2    -121.4    .0
 01296    446.7    -121.6    .0
 01313    443.7    -121.6    .0
 01329    440.7    -121.2    .0
 01343    437.1    -121.2    .0
 01361    433.7    -121.0    .0
 01378    430.8    -121.0    .0
 01393    427.9    -120.8    .0
 01407    424.9    -120.8    .0
 01422    422.1    -120.6    .0
 01437    419.1    -120.6    .0
 01454    416.6    -120.4    .0
 01469    413.8    -120.4    .0
 01484    410.9    -120.2    .0
 01499    407.7    -120.4    .0
 01516    405.1    -120.2    .0
 01531    402.5    -120.2    .0
 01546    399.8    -119.8    .0
 01561    396.4    -120.0    .0
 01579    393.6    -119.8    .0
 01594    390.8    -119.8    .0
 01609    388.1    -119.6    .0
 01623    385.0    -119.6    .0
 01640    382.1    -119.6    .0
 01655    378.7    -119.4    .0
 01673    375.8    -119.4    .0
 01688    372.7    -119.2    .0
 01704    369.9    -119.4    .0
 01719    367.0    -119.0    .0
 01735    363.5    -119.4    .0
 01753    360.7    -119.0    .0
 01768    357.3    -119.0    .0
 01786    354.3    -118.8    .0
 01801    351.0    -119.0    .0
 01819    348.4    -118.8    .0
 01835    345.7    -118.8    .0
 01850    342.6    -118.4    .0
 01867    339.3    -118.6    .0
 01885    336.5    -118.4    .0
 01900    333.6    -118.6    .0
 01915    330.7    -118.2    .0
 01930    327.1    -118.6    .0
 01948    324.1    -118.2    .0
 01963    320.6    -118.4    .0
 01981    317.6    -118.2    .0
 01996    314.1    -118.2    .0
 02014    311.2    -118.0    .0
 02029    308.2    -118.2    .0
 02044    305.5    -118.0    .0
 02059    302.0    -118.2    .0
 02077    299.2    -118.0    .0
 02092    295.8    -117.8    .0
 02110    292.9    -117.8    .0
 02124    289.9    -117.8    .0
 02140    286.6    -117.8    .0
 02157    283.8    -117.6    .0
 02172    280.8    -117.6    .0
 02187    277.4    -117.8    .0
 02204    274.4    -117.6    .0
 02219    271.4    -117.8    .0
 02234    268.4    -117.4    .0
 02249    264.6    -117.6    .0
 02267    261.5    -117.4    .0
 02283    258.0    -117.4    .0
 02301    255.0    -117.4    .0
 02316    251.3    -117.4    .0
 02333    248.4    -117.4    .0
 02348    245.5    -117.6    .0
 02363    242.7    -117.4    .0
 02377    239.9    -117.6    .0
 02393    237.0    -117.4    .0
 02408    234.2    -117.6    .0
 02424    231.5    -117.4    .0
 02438    228.1    -117.8    .0
 02457    225.3    -117.8    .0
 02472    222.0    -118.2    .0
 02490    219.4    -118.0    .0
 02505    216.2    -118.6    .0
 02523    213.4    -119.0    .0
 02538    210.1    -119.8    .0
 02556    207.4    -120.4    .0
 02571    204.3    -121.2    .0
 02588    201.8    -121.6    .0
 02603    199.1    -122.2    .0
 02619    196.3    -122.4    .0
 02634    193.1    -123.2    .0
 02652    190.0    -123.0    .0
 02670    186.9    -123.6    .0
 02688    184.2    -124.0    .0
 02704    181.3    -124.2    .0
 02722    178.7    -124.4    .0
 02737    175.6    -124.6    .0
 02755    173.0    -125.0    .0
 02769    170.4    -124.8    .0
 02784    167.9    -125.2    .0
 02799    165.4    -125.2    .0
 02815    162.5    -125.4    .0
 02832    160.1    -125.4    .0
 02847    157.2    -125.6    .0
 02865    154.7    -125.6    .0
 02880    151.7    -126.0    .0
 02898    149.2    -126.0    .0
 02913    146.1    -126.0    .0
 02931    143.6    -126.0    .0
 02946    140.8    -126.0    .0
 02963    138.5    -126.2    .0
 02978    136.1    -126.4    .0
 02993    133.9    -126.2    .0
 03007    131.0    -126.4    .0
 03026    128.7    -126.2    .0
 03041    126.0    -126.4    .0
 03058    123.7    -126.4    .0
 03073    120.9    -126.4    .0
 03091    118.4    -126.4    .0
 03107    115.8    -126.6    .0
 03125    113.2    -126.4    .0
 03142    110.6    -126.6    .0
 03160    108.4    -126.4    .0
 03175    105.7    -126.6    .0
 03193    103.5    -126.6    .0
 03209    101.3    -126.6    .0
 03223    99.3    -126.4    .0
 03238    97.0    -126.6    .0
 03254    94.7    -126.4    .0
 03270    92.1    -126.6    .0
 03288    90.2    -126.4    .0
 03303    87.8    -126.6    .0
 03321    85.9    -126.4    .0
 03336    83.4    -126.6    .0
 03355    81.5    -126.2    .0
 03370    79.1    -126.6    .0
 03388    77.1    -126.4    .0
 03404    74.9    -126.6    .0
 03422    73.0    -126.4    .0
 03437    70.8    -126.4    .0
 03455    68.9    -126.2    .0
 03471    66.7    -126.4    .0
 03489    64.8    -126.2    .0
 03504    62.8    -126.4    .0
 03522    60.9    -126.2    .0
 03539    58.8    -126.4    .0
 03557    57.1    -126.0    .0
 03574    55.4    -126.4    .0
 03592    53.6    -126.0    .0
 03610    52.0    -126.2    .0
 03628    50.6    -126.0    .0
 03643    48.9    -126.2    .0
